# 0Wavelength	 1Intensity
400.018	201.391
400.609	202.045
401.200	201.718
401.791	199.962
402.381	201.673
402.972	202.545
403.563	198.590
404.154	203.141
404.744	200.891
405.335	202.141
405.925	202.712
406.516	201.481
407.106	203.962
407.697	200.449
408.287	202.545
408.878	202.692
409.468	203.314
410.058	201.814
410.649	200.705
411.239	201.263
411.829	200.679
412.419	202.455
413.010	200.122
413.600	198.506
414.190	204.115
414.780	202.103
415.370	200.122
415.960	200.936
416.550	202.891
417.140	201.449
417.730	203.506
418.320	199.635
418.910	202.821
419.499	201.455
420.089	199.135
420.679	201.744
421.269	201.006
421.858	201.160
422.448	200.590
423.037	203.994
423.627	201.468
424.217	202.801
424.806	199.897
425.396	200.167
425.985	203.160
426.574	200.615
427.164	199.615
427.753	202.667
428.342	200.353
428.932	200.737
429.521	198.385
430.110	200.551
430.699	203.115
431.289	201.250
431.878	202.186
432.467	199.647
433.056	199.737
433.645	200.122
434.234	200.237
434.823	201.558
435.412	200.006
436.000	199.942
436.589	201.429
437.178	199.526
437.767	200.449
438.356	200.218
438.944	203.301
439.533	201.442
440.122	200.160
440.710	200.231
441.299	199.192
441.887	203.295
442.476	202.673
443.064	198.641
443.653	201.205
444.241	200.744
444.830	201.282
445.418	200.423
446.006	198.609
446.594	202.455
447.183	202.224
447.771	200.827
448.359	200.750
448.947	201.455
449.535	200.801
450.123	201.782
450.711	202.128
451.299	204.115
451.887	198.051
452.475	198.923
453.063	199.077
453.651	198.179
454.239	199.077
454.827	200.513
455.414	201.090
456.002	199.801
456.590	200.814
457.177	199.846
457.765	200.250
458.353	198.532
458.940	200.385
459.528	198.103
460.115	201.628
460.703	199.571
461.290	198.917
461.878	201.314
462.465	201.532
463.052	200.487
463.639	200.808
464.227	200.103
464.814	201.147
465.401	200.340
465.988	197.776
466.575	198.096
467.162	199.314
467.750	201.135
468.337	202.160
468.923	201.885
469.510	202.436
470.097	200.455
470.684	201.750
471.271	198.865
471.858	200.776
472.445	200.500
473.031	201.641
473.618	198.513
474.205	202.808
474.791	200.038
475.378	199.647
475.964	197.513
476.551	201.167
477.137	200.397
477.724	199.000
478.310	200.462
478.897	200.859
479.483	198.647
480.069	203.032
480.656	198.750
481.242	200.532
481.828	200.192
482.414	200.308
483.000	198.801
483.586	200.231
484.173	201.859
484.759	200.083
485.345	200.359
485.931	197.564
486.517	202.397
487.102	203.840
487.688	200.647
488.274	202.013
488.860	199.442
489.446	201.776
490.031	198.115
490.617	200.891
491.203	198.917
491.788	198.673
492.374	199.936
492.959	198.872
493.545	202.141
494.130	202.250
494.716	198.410
495.301	198.628
495.887	201.019
496.472	200.519
497.057	200.314
497.643	201.250
498.228	199.968
498.813	199.391
499.398	200.244
499.983	199.718
500.568	200.026
501.153	198.212
501.738	200.301
502.323	199.006
502.908	196.301
503.493	199.814
504.078	199.083
504.663	200.192
505.248	199.897
505.833	201.179
506.417	200.436
507.002	198.641
507.587	197.442
508.171	200.096
508.756	198.763
509.340	200.526
509.925	197.436
510.509	198.686
511.094	197.891
511.678	199.917
512.263	199.577
512.847	199.821
513.431	198.500
514.016	201.064
514.600	200.577
515.184	199.397
515.768	200.609
516.352	200.071
516.936	197.750
517.520	196.859
518.104	196.872
518.688	201.897
519.272	198.391
519.856	198.686
520.440	197.705
521.024	199.603
521.608	196.128
522.192	201.897
522.775	199.077
523.359	199.122
523.943	199.782
524.526	199.333
525.110	199.679
525.693	195.167
526.277	197.872
526.860	198.045
527.444	198.545
528.027	199.365
528.611	200.462
529.194	199.782
529.777	201.577
530.360	199.026
530.944	196.923
531.527	200.410
532.110	201.885
532.693	200.346
533.276	198.083
533.859	198.603
534.442	198.731
535.025	200.571
535.608	196.942
536.191	198.500
536.774	196.622
537.357	198.173
537.940	195.282
538.522	201.135
539.105	200.186
539.688	198.910
540.270	198.372
540.853	197.654
541.436	198.090
542.018	199.218
542.601	199.756
543.183	201.365
543.766	198.686
544.348	197.263
544.930	197.481
545.513	202.468
546.095	197.449
546.677	198.929
547.259	194.673
547.841	200.583
548.424	196.769
549.006	198.558
549.588	198.417
550.170	198.635
550.752	198.442
551.334	199.673
551.916	197.968
552.498	198.891
553.079	195.538
553.661	198.436
554.243	197.404
554.825	200.712
555.406	199.571
555.988	200.077
556.570	199.756
557.151	198.115
557.733	197.417
558.314	199.327
558.896	197.564
559.477	197.301
560.059	198.250
560.640	198.474
561.221	199.769
561.803	198.224
562.384	199.109
562.965	195.051
563.546	197.391
564.127	197.571
564.708	197.212
565.290	197.814
565.871	193.769
566.452	200.141
567.033	196.558
567.613	201.410
568.194	198.218
568.775	197.372
569.356	199.436
569.937	195.333
570.517	196.449
571.098	200.513
571.679	196.545
572.259	197.622
572.840	198.814
573.421	199.045
574.001	198.141
574.581	198.494
575.162	197.551
575.742	197.455
576.323	197.776
576.903	198.532
577.483	197.679
578.064	197.865
578.644	197.410
579.224	194.564
579.804	198.378
580.384	201.045
580.964	197.212
581.544	194.897
582.124	199.571
582.704	197.199
583.284	199.917
583.864	195.763
584.444	198.333
585.023	199.538
585.603	198.474
586.183	193.481
586.763	198.128
587.342	197.853
587.922	197.667
588.501	197.769
589.081	201.160
589.660	199.974
590.240	198.410
590.819	199.609
591.399	198.359
591.978	198.442
592.557	197.468
593.137	196.667
593.716	195.897
594.295	195.474
594.874	199.763
595.453	199.724
596.032	197.654
596.611	198.250
597.190	196.679
597.769	197.474
598.348	197.949
598.927	198.090
599.506	198.404
600.085	195.718
600.664	196.769
601.242	198.212
601.821	197.814
602.400	197.635
602.978	195.019
603.557	196.647
604.135	197.481
604.714	199.487
605.292	198.404
605.871	197.942
606.449	199.885
607.027	199.000
607.606	197.949
608.184	198.154
608.762	197.737
609.341	195.545
609.919	197.346
610.497	200.481
611.075	197.667
611.653	194.096
612.231	198.423
612.809	198.365
613.387	195.635
613.965	196.481
614.543	195.692
615.120	195.705
615.698	194.506
616.276	198.788
616.854	200.263
617.431	198.538
618.009	196.250
618.586	196.353
619.164	196.622
619.741	197.167
620.319	194.756
620.896	198.827
621.474	198.410
622.051	196.859
622.628	196.583
623.206	199.827
623.783	197.346
624.360	198.833
624.937	199.308
625.514	196.628
626.091	196.609
626.668	198.551
627.245	195.679
627.822	199.936
628.399	195.058
628.976	196.987
629.553	197.372
630.130	195.705
630.707	196.071
631.283	199.378
631.860	199.192
632.437	196.705
633.013	196.821
633.590	198.288
634.166	195.647
634.743	194.096
635.319	195.212
635.896	197.808
636.472	196.981
637.048	195.885
637.625	195.231
638.201	196.891
638.777	193.769
639.353	195.622
639.930	196.955
640.506	197.269
641.082	196.423
641.658	197.494
642.234	196.917
642.810	198.962
643.385	195.564
643.961	194.897
644.537	195.199
645.113	198.141
645.689	198.795
646.264	196.077
646.840	197.436
647.416	199.551
647.991	195.904
648.567	198.179
649.142	196.327
649.718	195.821
650.293	197.724
650.869	197.968
651.444	198.301
652.019	198.628
652.595	195.417
653.170	196.532
653.745	197.282
654.320	201.891
654.895	197.359
655.470	195.391
656.045	197.692
656.620	195.872
657.195	198.179
657.770	197.929
658.345	195.378
658.920	195.987
659.495	197.583
660.069	197.429
660.644	193.128
661.219	196.391
661.793	196.526
662.368	197.513
662.943	198.731
663.517	199.378
664.092	197.487
664.666	197.449
665.240	196.468
665.815	193.135
666.389	198.519
666.963	192.276
667.538	197.692
668.112	194.308
668.686	196.462
669.260	198.327
669.834	198.551
670.408	196.051
670.982	197.538
671.556	195.250
672.130	197.045
672.704	196.442
673.278	195.122
673.852	197.032
674.425	194.423
674.999	195.455
675.573	195.410
676.146	195.256
676.720	196.519
677.294	196.532
677.867	195.276
678.441	196.577
679.014	194.192
679.587	198.724
680.161	196.090
680.734	194.923
681.307	197.141
681.880	195.141
682.454	195.660
683.027	195.571
683.600	194.051
684.173	195.513
684.746	193.128
685.319	193.346
685.892	193.981
686.465	198.647
687.038	195.808
687.611	196.212
688.183	198.923
688.756	198.904
689.329	196.340
689.901	196.910
690.474	195.679
691.047	191.756
691.619	195.192
692.192	196.583
692.764	198.545
693.337	198.301
693.909	195.244
694.481	197.712
695.054	197.295
695.626	196.013
696.198	198.199
696.770	197.513
697.342	194.872
697.914	198.647
698.486	195.269
699.059	195.462
699.630	196.917
700.202	197.314
700.774	195.154
701.346	194.167
701.918	192.583
702.490	195.494
703.061	195.756
703.633	197.154
704.205	193.071
704.776	195.564
705.348	196.000
705.919	196.538
706.491	196.385
707.062	196.173
707.634	197.910
708.205	196.301
708.776	194.468
709.348	197.904
709.919	197.994
710.490	197.673
711.061	194.404
711.632	196.673
712.203	197.250
712.774	195.500
713.345	195.058
713.916	194.487
714.487	192.994
715.058	193.436
715.629	194.660
716.200	196.410
716.770	193.878
717.341	196.686
717.912	197.417
718.482	196.179
719.053	193.724
719.623	194.833
720.194	194.429
720.764	197.167
721.335	191.981
721.905	196.103
722.475	194.737
723.046	196.494
723.616	193.301
724.186	197.532
724.756	196.353
725.326	195.077
725.897	191.686
726.467	195.551
727.037	196.987
727.606	194.692
728.176	193.026
728.746	197.910
729.316	198.705
729.886	194.891
730.456	197.923
731.025	195.654
731.595	193.006
732.165	193.526
732.734	196.295
733.304	194.397
733.873	194.718
734.443	193.923
735.012	194.385
735.581	195.083
736.151	194.949
736.720	195.288
737.289	193.981
737.858	194.359
738.427	197.250
738.997	192.923
739.566	193.506
740.135	197.769
740.704	195.147
741.273	195.519
741.841	193.417
742.410	196.410
742.979	193.660
743.548	193.327
744.117	197.314
744.685	194.109
745.254	196.263
745.823	193.731
746.391	197.737
746.960	194.583
747.528	195.673
748.096	194.769
748.665	195.840
749.233	197.256
749.802	193.468
750.370	194.609
750.938	196.250
751.506	194.577
752.074	193.756
752.642	197.103
753.211	194.346
753.779	191.609
754.346	196.423
754.914	194.923
755.482	195.378
756.050	195.917
756.618	196.615
757.186	194.942
757.753	196.083
758.321	195.923
758.889	194.353
759.456	195.314
760.024	195.103
760.591	198.513
761.159	196.045
761.726	192.269
762.294	196.192
762.861	193.250
763.428	192.756
763.995	196.064
764.563	194.256
765.130	195.487
765.697	193.250
766.264	194.744
766.831	195.327
767.398	194.442
767.965	191.071
768.532	197.526
769.099	194.814
769.665	192.955
770.232	195.135
770.799	193.596
771.366	193.981
771.932	195.609
772.499	195.506
773.065	195.949
773.632	196.865
774.198	193.378
774.765	192.224
775.331	193.212
775.898	194.622
776.464	193.814
777.030	195.551
777.596	195.160
778.162	192.154
778.729	194.199
779.295	193.551
779.861	194.763
780.427	192.474
780.993	195.077
781.558	192.609
782.124	194.558
782.690	192.154
783.256	194.353
783.822	194.442
784.387	193.250
784.953	193.212
785.519	194.474
786.084	196.250
786.650	194.865
787.215	194.077
787.781	193.365
788.346	191.494
788.911	193.660
789.477	192.974
790.042	191.994
790.607	192.487
791.172	195.769
791.737	192.423
792.303	190.115
792.868	194.000
793.432	190.673
793.997	191.378
794.562	195.897
795.127	194.776
795.692	190.647
796.257	191.340
796.822	193.897
797.386	195.506
797.951	192.167
798.516	193.032
799.080	193.263
799.645	190.788
800.209	189.840
